File Path	chrom://pc-99hx762/ChromeleonLocal/Instrument Data/PC-99HX762_1/Sequenzen/CarboPac-PA1/20170526_MME_Angel.seq/850.smp/ED_1.channel/ED_1.chm
Channel	ED_1

Injection Information:
Data Vault	ChromeleonLocal
Injection	20170526_MME_AA_STD-Mix2
Injection Number	5
Position	5
Comment	
Processing Method	
Instrument Method	0-400 mM NaAc 40 min_OHNE_PORT_B 1HZ
Type	Unknown
Status	Finished
Injection Date	26.05.2017
Injection Time	16:52:02
Injection Volume (µl)	25,0
Dilution Factor	1,0000
Weight	1,0000

Chromatogram Data Information:
Time Min. (min)	0,000000
Time Max. (min)	54,000000
Data Points	3241
Detector	EDet1
Generating Data System	Chromeleon 7.2.3.7553
Exporting Data System	Chromeleon 7.2.3.0
Operator	Instrument Controller
Signal Quantity	
Signal Unit	nC
Signal Min.	-0,774900
Signal Max.	210,061603
Channel	ED_1
Driver Name	DC-3000
Channel Type	Evaluation
Min. Step (s)	1
Max. Step (s)	1
Average Step (s)	1

Signal Parameter Information:
Signal Info	

Chromatogram Data:
Time (min)	Step (s)	Value (nC)
0,000000	n.a.	-0,089600
0,016667	1	-0,038750
0,033333	1	-0,019900
0,050000	1	-0,010700
0,066667	1	-0,004400
0,083333	1	-0,013550
0,100000	1	-0,007050
0,116667	1	-0,011600
0,133333	1	-0,014200
0,150000	1	-0,025100
0,166667	1	-0,017800
0,183333	1	-0,024850
0,200000	1	-0,026850
0,216667	1	-0,030500
0,233333	1	-0,030050
0,250000	1	-0,040250
0,266667	1	-0,029200
0,283333	1	-0,033000
0,300000	1	-0,035300
0,316667	1	-0,049800
0,333333	1	-0,049900
0,350000	1	-0,036000
0,366667	1	-0,054600
0,383333	1	-0,060800
0,400000	1	-0,060200
0,416667	1	-0,056650
0,433333	1	-0,052350
0,450000	1	-0,056150
0,466667	1	-0,068200
0,483333	1	-0,066550
0,500000	1	-0,072650
0,516667	1	-0,061500
0,533333	1	-0,064000
0,550000	1	-0,079900
0,566667	1	-0,085500
0,583333	1	-0,083400
0,600000	1	-0,088300
0,616667	1	-0,094200
0,633333	1	-0,101750
0,650000	1	-0,087500
0,666667	1	-0,091750
0,683333	1	-0,093000
0,700000	1	-0,091700
0,716667	1	-0,096600
0,733333	1	-0,088050
0,750000	1	-0,091000
0,766667	1	-0,096100
0,783333	1	-0,101700
0,800000	1	-0,099050
0,816667	1	-0,100600
0,833333	1	-0,109550
0,850000	1	-0,110350
0,866667	1	-0,114750
0,883333	1	-0,110850
0,900000	1	-0,108900
0,916667	1	-0,111650
0,933333	1	-0,128550
0,950000	1	-0,127900
0,966667	1	-0,112000
0,983333	1	-0,121550
1,000000	1	-0,117550
1,016667	1	-0,124250
1,033333	1	-0,108250
1,050000	1	-0,109500
1,066667	1	-0,119600
1,083333	1	-0,139650
1,100000	1	-0,133850
1,116667	1	-0,129550
1,133333	1	-0,128350
1,150000	1	-0,126200
1,166667	1	-0,124100
1,183333	1	-0,121400
1,200000	1	-0,131050
1,216667	1	-0,123000
1,233333	1	-0,121950
1,250000	1	-0,138150
1,266667	1	-0,127150
1,283333	1	-0,124650
1,300000	1	-0,139200
1,316667	1	-0,138150
1,333333	1	-0,137450
1,350000	1	-0,127100
1,366667	1	-0,140750
1,383333	1	-0,181300
1,400000	1	-0,648700
1,416667	1	-0,774900
1,433333	1	0,100800
1,450000	1	0,385400
1,466667	1	0,198200
1,483333	1	0,025350
1,500000	1	-0,093350
1,516667	1	-0,143400
1,533333	1	-0,142100
1,550000	1	-0,130100
1,566667	1	-0,082900
1,583333	1	-0,022650
1,600000	1	0,018900
1,616667	1	0,032500
1,633333	1	0,058700
1,650000	1	0,133300
1,666667	1	0,233100
1,683333	1	0,379700
1,700000	1	0,707200
1,716667	1	1,417000
1,733333	1	2,042650
1,750000	1	2,096900
1,766667	1	1,712000
1,783333	1	1,193000
1,800000	1	0,768200
1,816667	1	0,463450
1,833333	1	0,262150
1,850000	1	0,154850
1,866667	1	0,084000
1,883333	1	0,048000
1,900000	1	0,022850
1,916667	1	-0,006100
1,933333	1	-0,008400
1,950000	1	-0,032100
1,966667	1	-0,040750
1,983333	1	-0,063150
2,000000	1	-0,065950
2,016667	1	-0,072150
2,033333	1	-0,078200
2,050000	1	-0,079500
2,066667	1	-0,086550
2,083333	1	-0,088600
2,100000	1	-0,090800
2,116667	1	-0,086800
2,133333	1	-0,087750
2,150000	1	-0,098050
2,166667	1	-0,098250
2,183333	1	-0,092650
2,200000	1	-0,101150
2,216667	1	-0,109350
2,233333	1	-0,111600
2,250000	1	-0,112050
2,266667	1	-0,109150
2,283333	1	-0,116950
2,300000	1	-0,121300
2,316667	1	-0,126650
2,333333	1	-0,121700
2,350000	1	-0,119600
2,366667	1	-0,121950
2,383333	1	-0,128650
2,400000	1	-0,133900
2,416667	1	-0,118500
2,433333	1	-0,126800
2,450000	1	-0,142650
2,466667	1	-0,146400
2,483333	1	-0,146100
2,500000	1	-0,143950
2,516667	1	-0,139250
2,533333	1	-0,142900
2,550000	1	-0,158700
2,566667	1	-0,154600
2,583333	1	-0,162800
2,600000	1	-0,163100
2,616667	1	-0,144850
2,633333	1	-0,130100
2,650000	1	-0,102850
2,666667	1	-0,074850
2,683333	1	-0,057550
2,700000	1	-0,034750
2,716667	1	0,054250
2,733333	1	0,240800
2,750000	1	0,495000
2,766667	1	0,713850
2,783333	1	0,776950
2,800000	1	0,695500
2,816667	1	0,525550
2,833333	1	0,362600
2,850000	1	0,239700
2,866667	1	0,146750
2,883333	1	0,077950
2,900000	1	0,031550
2,916667	1	0,008850
2,933333	1	-0,028000
2,950000	1	-0,041800
2,966667	1	-0,059000
2,983333	1	-0,078800
3,000000	1	-0,087250
3,016667	1	-0,083650
3,033333	1	-0,086650
3,050000	1	-0,082900
3,066667	1	-0,091750
3,083333	1	-0,088600
3,100000	1	-0,100900
3,116667	1	-0,113500
3,133333	1	-0,126400
3,150000	1	-0,124950
3,166667	1	-0,137400
3,183333	1	-0,134100
3,200000	1	-0,134000
3,216667	1	-0,139750
3,233333	1	-0,141950
3,250000	1	-0,136250
3,266667	1	-0,138200
3,283333	1	-0,148150
3,300000	1	-0,151550
3,316667	1	-0,152400
3,333333	1	-0,138050
3,350000	1	-0,144850
3,366667	1	-0,146800
3,383333	1	-0,152500
3,400000	1	-0,131950
3,416667	1	-0,142650
3,433333	1	-0,139400
3,450000	1	-0,120700
3,466667	1	-0,134800
3,483333	1	-0,136300
3,500000	1	-0,130250
3,516667	1	-0,131500
3,533333	1	-0,129050
3,550000	1	-0,121250
3,566667	1	-0,116800
3,583333	1	-0,110250
3,600000	1	-0,114800
3,616667	1	-0,095100
3,633333	1	-0,085550
3,650000	1	-0,088350
3,666667	1	-0,076150
3,683333	1	-0,073250
3,700000	1	-0,068100
3,716667	1	-0,056100
3,733333	1	-0,055150
3,750000	1	-0,049400
3,766667	1	-0,046900
3,783333	1	-0,035850
3,800000	1	-0,030050
3,816667	1	-0,030000
3,833333	1	-0,014100
3,850000	1	-0,012750
3,866667	1	-0,005700
3,883333	1	0,001550
3,900000	1	-0,001100
3,916667	1	0,004700
3,933333	1	0,026650
3,950000	1	0,033550
3,966667	1	0,031500
3,983333	1	0,039350
4,000000	1	0,040000
4,016667	1	0,056250
4,033333	1	0,060650
4,050000	1	0,057750
4,066667	1	0,069500
4,083333	1	0,085000
4,100000	1	0,088800
4,116667	1	0,097050
4,133333	1	0,094750
4,150000	1	0,098400
4,166667	1	0,103050
4,183333	1	0,097850
4,200000	1	0,102400
4,216667	1	0,107700
4,233333	1	0,123200
4,250000	1	0,123600
4,266667	1	0,138500
4,283333	1	0,152550
4,300000	1	0,174450
4,316667	1	0,189450
4,333333	1	0,209800
4,350000	1	0,220700
4,366667	1	0,239800
4,383333	1	0,262950
4,400000	1	0,289200
4,416667	1	0,281950
4,433333	1	0,285300
4,450000	1	0,291800
4,466667	1	0,294500
4,483333	1	0,297000
4,500000	1	0,289500
4,516667	1	0,290600
4,533333	1	0,295700
4,550000	1	0,308300
4,566667	1	0,305550
4,583333	1	0,304600
4,600000	1	0,296350
4,616667	1	0,314850
4,633333	1	0,323450
4,650000	1	0,325100
4,666667	1	0,312500
4,683333	1	0,319800
4,700000	1	0,322950
4,716667	1	0,334550
4,733333	1	0,330000
4,750000	1	0,337450
4,766667	1	0,339250
4,783333	1	0,347750
4,800000	1	0,349900
4,816667	1	0,337750
4,833333	1	0,350550
4,850000	1	0,372200
4,866667	1	0,377250
4,883333	1	0,377700
4,900000	1	0,379200
4,916667	1	0,388050
4,933333	1	0,395550
4,950000	1	0,399550
4,966667	1	0,392100
4,983333	1	0,390600
5,000000	1	0,419400
5,016667	1	0,424750
5,033333	1	0,406700
5,050000	1	0,414200
5,066667	1	0,426400
5,083333	1	0,445850
5,100000	1	0,445650
5,116667	1	0,446650
5,133333	1	0,456650
5,150000	1	0,475050
5,166667	1	0,498750
5,183333	1	0,489200
5,200000	1	0,512150
5,216667	1	0,527000
5,233333	1	0,551950
5,250000	1	0,543650
5,266667	1	0,552050
5,283333	1	0,555600
5,300000	1	0,553550
5,316667	1	0,541700
5,333333	1	0,539650
5,350000	1	0,542250
5,366667	1	0,549950
5,383333	1	0,564200
5,400000	1	0,574150
5,416667	1	0,556850
5,433333	1	0,560000
5,450000	1	0,578700
5,466667	1	0,598350
5,483333	1	0,592900
5,500000	1	0,599050
5,516667	1	0,602300
5,533333	1	0,614500
5,550000	1	0,621100
5,566667	1	0,617950
5,583333	1	0,618050
5,600000	1	0,623400
5,616667	1	0,627200
5,633333	1	0,633100
5,650000	1	0,648800
5,666667	1	0,654100
5,683333	1	0,676200
5,700000	1	0,670450
5,716667	1	0,675200
5,733333	1	0,689550
5,750000	1	0,701400
5,766667	1	0,721550
5,783333	1	0,721250
5,800000	1	0,733750
5,816667	1	0,751350
5,833333	1	0,754800
5,850000	1	0,764700
5,866667	1	0,760300
5,883333	1	0,770650
5,900000	1	0,766550
5,916667	1	0,802150
5,933333	1	0,812250
5,950000	1	0,818600
5,966667	1	0,845350
5,983333	1	0,900050
6,000000	1	0,980500
6,016667	1	1,101400
6,033333	1	1,246100
6,050000	1	1,428600
6,066667	1	1,646100
6,083333	1	1,843400
6,100000	1	2,003650
6,116667	1	2,113100
6,133333	1	2,201350
6,150000	1	2,249700
6,166667	1	2,251050
6,183333	1	2,243900
6,200000	1	2,229950
6,216667	1	2,234250
6,233333	1	2,219600
6,250000	1	2,207200
6,266667	1	2,189800
6,283333	1	2,184000
6,300000	1	2,193700
6,316667	1	2,174050
6,333333	1	2,170250
6,350000	1	2,188450
6,366667	1	2,207550
6,383333	1	2,226050
6,400000	1	2,239700
6,416667	1	2,271050
6,433333	1	2,298600
6,450000	1	2,342550
6,466667	1	2,361500
6,483333	1	2,398200
6,500000	1	2,425650
6,516667	1	2,460650
6,533333	1	2,481300
6,550000	1	2,512000
6,566667	1	2,543850
6,583333	1	2,569050
6,600000	1	2,621050
6,616667	1	2,640100
6,633333	1	2,679700
6,650000	1	2,719800
6,666667	1	2,738000
6,683333	1	2,794100
6,700000	1	2,838400
6,716667	1	2,870400
6,733333	1	2,913400
6,750000	1	2,967650
6,766667	1	3,008600
6,783333	1	3,045900
6,800000	1	3,071300
6,816667	1	3,124200
6,833333	1	3,183850
6,850000	1	3,220400
6,866667	1	3,270000
6,883333	1	3,314900
6,900000	1	3,367050
6,916667	1	3,406450
6,933333	1	3,449200
6,950000	1	3,500750
6,966667	1	3,560850
6,983333	1	3,615100
7,000000	1	3,664850
7,016667	1	3,695150
7,033333	1	3,756600
7,050000	1	3,805850
7,066667	1	3,865050
7,083333	1	3,905500
7,100000	1	3,952900
7,116667	1	3,989600
7,133333	1	4,050550
7,150000	1	4,113850
7,166667	1	4,157450
7,183333	1	4,202150
7,200000	1	4,262350
7,216667	1	4,346550
7,233333	1	4,403450
7,250000	1	4,456750
7,266667	1	4,534300
7,283333	1	4,616050
7,300000	1	4,706300
7,316667	1	4,773200
7,333333	1	4,848250
7,350000	1	4,943800
7,366667	1	5,040850
7,383333	1	5,122150
7,400000	1	5,196950
7,416667	1	5,273200
7,433333	1	5,383850
7,450000	1	5,462200
7,466667	1	5,547650
7,483333	1	5,615400
7,500000	1	5,691950
7,516667	1	5,792450
7,533333	1	5,879650
7,550000	1	5,943950
7,566667	1	6,029900
7,583333	1	6,120750
7,600000	1	6,235200
7,616667	1	6,315650
7,633333	1	6,417300
7,650000	1	6,519350
7,666667	1	6,625300
7,683333	1	6,733450
7,700000	1	6,842400
7,716667	1	6,943850
7,733333	1	7,064550
7,750000	1	7,192300
7,766667	1	7,316750
7,783333	1	7,435800
7,800000	1	7,557200
7,816667	1	7,718850
7,833333	1	7,861000
7,850000	1	8,003200
7,866667	1	8,135600
7,883333	1	8,296950
7,900000	1	8,486500
7,916667	1	8,655600
7,933333	1	8,829100
7,950000	1	9,048300
7,966667	1	9,258100
7,983333	1	9,489500
8,000000	1	9,743200
8,016667	1	9,991600
8,033333	1	10,291450
8,050000	1	10,618850
8,066667	1	10,949100
8,083333	1	11,310650
8,100000	1	11,720550
8,116667	1	12,184700
8,133333	1	12,721900
8,150000	1	13,341600
8,166667	1	14,092350
8,183333	1	15,044200
8,200000	1	16,418400
8,216667	1	19,999900
8,233333	1	45,964251
8,250000	1	29,190500
8,266667	1	17,258950
8,283333	1	13,263850
8,300000	1	11,614700
8,316667	1	10,769950
8,333333	1	10,246700
8,350000	1	9,872450
8,366667	1	9,546950
8,383333	1	9,275500
8,400000	1	9,011150
8,416667	1	8,816700
8,433333	1	8,641900
8,450000	1	8,469600
8,466667	1	8,309150
8,483333	1	8,191800
8,500000	1	8,065950
8,516667	1	7,947550
8,533333	1	7,826050
8,550000	1	7,712800
8,566667	1	7,632300
8,583333	1	7,578050
8,600000	1	7,462200
8,616667	1	7,373300
8,633333	1	7,287850
8,650000	1	7,212350
8,666667	1	7,146900
8,683333	1	7,070700
8,700000	1	7,013350
8,716667	1	6,957750
8,733333	1	6,886450
8,750000	1	6,828200
8,766667	1	6,749950
8,783333	1	6,715800
8,800000	1	6,668800
8,816667	1	6,634700
8,833333	1	6,604700
8,850000	1	6,571950
8,866667	1	6,548900
8,883333	1	6,502850
8,900000	1	6,483900
8,916667	1	6,443850
8,933333	1	6,379400
8,950000	1	6,334550
8,966667	1	6,277900
8,983333	1	6,221700
9,000000	1	6,187550
9,016667	1	6,157650
9,033333	1	6,155350
9,050000	1	6,139700
9,066667	1	6,141400
9,083333	1	6,154200
9,100000	1	6,163300
9,116667	1	6,196650
9,133333	1	6,211950
9,150000	1	6,225200
9,166667	1	6,226400
9,183333	1	6,235350
9,200000	1	6,249400
9,216667	1	6,244800
9,233333	1	6,277600
9,250000	1	6,257850
9,266667	1	6,268150
9,283333	1	6,296100
9,300000	1	6,287750
9,316667	1	6,300700
9,333333	1	6,326950
9,350000	1	6,362750
9,366667	1	6,380300
9,383333	1	6,406650
9,400000	1	6,412650
9,416667	1	6,419650
9,433333	1	6,421200
9,450000	1	6,413600
9,466667	1	6,411200
9,483333	1	6,409850
9,500000	1	6,424450
9,516667	1	6,428950
9,533333	1	6,413750
9,550000	1	6,412400
9,566667	1	6,402800
9,583333	1	6,381500
9,600000	1	6,335400
9,616667	1	6,289300
9,633333	1	6,243850
9,650000	1	6,201850
9,666667	1	6,147300
9,683333	1	6,086550
9,700000	1	6,045550
9,716667	1	6,000100
9,733333	1	5,963450
9,750000	1	5,934900
9,766667	1	5,891850
9,783333	1	5,859150
9,800000	1	5,849800
9,816667	1	5,835700
9,833333	1	5,826600
9,850000	1	5,830250
9,866667	1	5,833800
9,883333	1	5,836100
9,900000	1	5,822100
9,916667	1	5,792200
9,933333	1	5,769600
9,950000	1	5,756900
9,966667	1	5,733450
9,983333	1	5,723450
10,000000	1	5,703250
10,016667	1	5,688500
10,033333	1	5,687550
10,050000	1	5,670800
10,066667	1	5,661050
10,083333	1	5,668850
10,100000	1	5,667450
10,116667	1	5,657150
10,133333	1	5,642400
10,150000	1	5,633700
10,166667	1	5,627300
10,183333	1	5,632850
10,200000	1	5,621750
10,216667	1	5,608600
10,233333	1	5,596950
10,250000	1	5,607200
10,266667	1	5,630000
10,283333	1	5,631250
10,300000	1	5,637400
10,316667	1	5,653250
10,333333	1	5,670150
10,350000	1	5,684450
10,366667	1	5,692400
10,383333	1	5,697900
10,400000	1	5,704100
10,416667	1	5,723350
10,433333	1	5,725950
10,450000	1	5,733550
10,466667	1	5,734900
10,483333	1	5,746950
10,500000	1	5,732950
10,516667	1	5,723500
10,533333	1	5,725450
10,550000	1	5,697100
10,566667	1	5,708200
10,583333	1	5,705100
10,600000	1	5,678850
10,616667	1	5,675300
10,633333	1	5,665600
10,650000	1	5,674800
10,666667	1	5,655700
10,683333	1	5,643900
10,700000	1	5,643900
10,716667	1	5,654300
10,733333	1	5,660500
10,750000	1	5,669450
10,766667	1	5,662550
10,783333	1	5,662800
10,800000	1	5,677450
10,816667	1	5,672800
10,833333	1	5,680950
10,850000	1	5,688350
10,866667	1	5,708850
10,883333	1	5,727050
10,900000	1	5,717400
10,916667	1	5,740300
10,933333	1	5,758900
10,950000	1	5,787650
10,966667	1	5,794350
10,983333	1	5,803100
11,000000	1	5,802050
11,016667	1	5,802600
11,033333	1	5,805150
11,050000	1	5,792350
11,066667	1	5,790700
11,083333	1	5,790450
11,100000	1	5,785900
11,116667	1	5,762400
11,133333	1	5,728050
11,150000	1	5,726550
11,166667	1	5,716750
11,183333	1	5,705550
11,200000	1	5,713000
11,216667	1	5,704900
11,233333	1	5,719700
11,250000	1	5,720900
11,266667	1	5,732250
11,283333	1	5,737900
11,300000	1	5,748800
11,316667	1	5,753900
11,333333	1	5,778000
11,350000	1	5,791400
11,366667	1	5,809600
11,383333	1	5,819550
11,400000	1	5,837950
11,416667	1	5,861350
11,433333	1	5,869950
11,450000	1	5,888400
11,466667	1	5,884850
11,483333	1	5,906150
11,500000	1	5,917450
11,516667	1	5,905300
11,533333	1	5,899550
11,550000	1	5,905050
11,566667	1	5,904150
11,583333	1	5,895100
11,600000	1	5,867100
11,616667	1	5,851550
11,633333	1	5,842400
11,650000	1	5,832800
11,666667	1	5,809350
11,683333	1	5,805450
11,700000	1	5,810600
11,716667	1	5,810650
11,733333	1	5,802250
11,750000	1	5,792550
11,766667	1	5,793350
11,783333	1	5,820200
11,800000	1	5,839350
11,816667	1	5,825700
11,833333	1	5,839850
11,850000	1	5,838950
11,866667	1	5,859200
11,883333	1	5,850800
11,900000	1	5,845500
11,916667	1	5,834550
11,933333	1	5,829950
11,950000	1	5,831200
11,966667	1	5,824750
11,983333	1	5,825900
12,000000	1	5,825550
12,016667	1	5,857950
12,033333	1	5,848550
12,050000	1	5,874150
12,066667	1	5,880450
12,083333	1	5,906900
12,100000	1	5,909850
12,116667	1	5,918050
12,133333	1	5,923400
12,150000	1	5,938200
12,166667	1	5,943300
12,183333	1	5,948250
12,200000	1	5,936200
12,216667	1	5,934750
12,233333	1	5,960950
12,250000	1	5,945200
12,266667	1	5,949350
12,283333	1	5,960700
12,300000	1	5,966000
12,316667	1	5,993600
12,333333	1	6,004900
12,350000	1	6,018350
12,366667	1	6,004650
12,383333	1	6,021950
12,400000	1	6,052650
12,416667	1	6,063400
12,433333	1	6,074900
12,450000	1	6,086350
12,466667	1	6,105550
12,483333	1	6,108400
12,500000	1	6,120550
12,516667	1	6,149150
12,533333	1	6,142500
12,550000	1	6,177700
12,566667	1	6,187600
12,583333	1	6,187700
12,600000	1	6,216250
12,616667	1	6,253200
12,633333	1	6,257550
12,650000	1	6,278250
12,666667	1	6,280900
12,683333	1	6,312050
12,700000	1	6,367100
12,716667	1	6,399300
12,733333	1	6,457150
12,750000	1	6,522200
12,766667	1	6,606450
12,783333	1	6,680750
12,800000	1	6,726200
12,816667	1	6,746800
12,833333	1	6,748250
12,850000	1	6,729900
12,866667	1	6,706300
12,883333	1	6,659900
12,900000	1	6,632300
12,916667	1	6,585000
12,933333	1	6,569050
12,950000	1	6,545750
12,966667	1	6,529900
12,983333	1	6,509050
13,000000	1	6,512250
13,016667	1	6,521350
13,033333	1	6,528650
13,050000	1	6,531150
13,066667	1	6,547150
13,083333	1	6,585950
13,100000	1	6,670050
13,116667	1	6,913400
13,133333	1	7,668700
13,150000	1	9,590950
13,166667	1	14,039250
13,183333	1	23,203800
13,200000	1	39,763251
13,216667	1	65,817951
13,233333	1	101,287152
13,250000	1	141,664502
13,266667	1	178,269353
13,283333	1	203,393203
13,300000	1	210,061603
13,316667	1	196,805453
13,333333	1	168,060853
13,350000	1	131,895152
13,366667	1	96,075551
13,383333	1	65,906901
13,400000	1	43,443351
13,416667	1	28,861550
13,433333	1	19,804650
13,450000	1	14,665950
13,466667	1	11,820400
13,483333	1	10,247100
13,500000	1	9,357050
13,516667	1	8,803550
13,533333	1	8,436000
13,550000	1	8,166300
13,566667	1	7,959350
13,583333	1	7,789950
13,600000	1	7,645500
13,616667	1	7,540800
13,633333	1	7,435350
13,650000	1	7,337100
13,666667	1	7,248450
13,683333	1	7,216750
13,700000	1	7,140300
13,716667	1	7,103800
13,733333	1	7,076550
13,750000	1	7,033750
13,766667	1	7,019150
13,783333	1	7,005500
13,800000	1	6,973850
13,816667	1	6,963050
13,833333	1	6,961350
13,850000	1	6,947650
13,866667	1	6,933600
13,883333	1	6,934400
13,900000	1	6,940750
13,916667	1	6,939550
13,933333	1	6,950900
13,950000	1	6,931350
13,966667	1	6,914100
13,983333	1	6,905600
14,000000	1	6,901050
14,016667	1	6,888100
14,033333	1	6,853750
14,050000	1	6,845750
14,066667	1	6,839950
14,083333	1	6,855500
14,100000	1	6,819750
14,116667	1	6,840950
14,133333	1	6,839100
14,150000	1	6,834450
14,166667	1	6,832450
14,183333	1	6,830700
14,200000	1	6,833150
14,216667	1	6,841450
14,233333	1	6,868750
14,250000	1	6,859400
14,266667	1	6,868600
14,283333	1	6,872000
14,300000	1	6,889350
14,316667	1	6,877150
14,333333	1	6,881700
14,350000	1	6,889200
14,366667	1	6,898150
14,383333	1	6,917600
14,400000	1	6,933100
14,416667	1	6,957100
14,433333	1	6,979300
14,450000	1	7,011150
14,466667	1	7,015300
14,483333	1	6,996300
14,500000	1	6,987300
14,516667	1	6,988850
14,533333	1	6,987800
14,550000	1	6,993900
14,566667	1	7,100650
14,583333	1	7,451600
14,600000	1	7,488900
14,616667	1	7,209350
14,633333	1	7,016850
14,650000	1	6,952950
14,666667	1	6,914850
14,683333	1	6,869250
14,700000	1	6,864300
14,716667	1	6,861600
14,733333	1	6,842750
14,750000	1	6,861200
14,766667	1	6,859400
14,783333	1	6,840200
14,800000	1	6,831500
14,816667	1	6,846250
14,833333	1	6,864250
14,850000	1	6,853250
14,866667	1	6,860400
14,883333	1	6,870950
14,900000	1	6,881750
14,916667	1	6,877350
14,933333	1	6,883800
14,950000	1	6,877050
14,966667	1	6,865200
14,983333	1	6,878000
15,000000	1	6,862800
15,016667	1	6,862700
15,033333	1	6,877250
15,050000	1	6,888100
15,066667	1	6,891800
15,083333	1	6,900700
15,100000	1	6,885000
15,116667	1	6,892500
15,133333	1	6,904900
15,150000	1	6,885700
15,166667	1	6,877800
15,183333	1	6,888350
15,200000	1	6,891450
15,216667	1	6,889900
15,233333	1	6,897400
15,250000	1	6,887600
15,266667	1	6,902500
15,283333	1	6,915550
15,300000	1	6,935550
15,316667	1	6,947600
15,333333	1	6,967200
15,350000	1	6,986400
15,366667	1	7,001550
15,383333	1	7,020500
15,400000	1	7,028900
15,416667	1	7,051900
15,433333	1	7,082650
15,450000	1	7,088000
15,466667	1	7,100450
15,483333	1	7,095000
15,500000	1	7,107050
15,516667	1	7,139150
15,533333	1	7,149250
15,550000	1	7,167150
15,566667	1	7,190100
15,583333	1	7,204250
15,600000	1	7,222700
15,616667	1	7,236450
15,633333	1	7,222300
15,650000	1	7,220200
15,666667	1	7,233200
15,683333	1	7,224050
15,700000	1	7,218700
15,716667	1	7,224200
15,733333	1	7,237700
15,750000	1	7,247850
15,766667	1	7,254350
15,783333	1	7,253850
15,800000	1	7,278750
15,816667	1	7,303700
15,833333	1	7,304500
15,850000	1	7,306900
15,866667	1	7,332500
15,883333	1	7,347800
15,900000	1	7,384850
15,916667	1	7,383850
15,933333	1	7,374150
15,950000	1	7,397850
15,966667	1	7,415900
15,983333	1	7,410200
16,000000	1	7,429650
16,016667	1	7,430550
16,033333	1	7,428150
16,050000	1	7,437400
16,066667	1	7,461800
16,083333	1	7,459950
16,100000	1	7,465250
16,116667	1	7,476250
16,133333	1	7,491200
16,150000	1	7,481600
16,166667	1	7,491800
16,183333	1	7,491900
16,200000	1	7,515000
16,216667	1	7,530300
16,233333	1	7,540850
16,250000	1	7,540700
16,266667	1	7,574650
16,283333	1	7,588250
16,300000	1	7,583900
16,316667	1	7,564250
16,333333	1	7,576150
16,350000	1	7,593800
16,366667	1	7,599300
16,383333	1	7,583600
16,400000	1	7,582550
16,416667	1	7,605700
16,433333	1	7,619300
16,450000	1	7,630500
16,466667	1	7,609450
16,483333	1	7,621950
16,500000	1	7,648500
16,516667	1	7,647450
16,533333	1	7,647100
16,550000	1	7,658700
16,566667	1	7,669200
16,583333	1	7,678400
16,600000	1	7,689250
16,616667	1	7,701400
16,633333	1	7,690200
16,650000	1	7,720700
16,666667	1	7,725000
16,683333	1	7,735650
16,700000	1	7,740550
16,716667	1	7,745050
16,733333	1	7,780950
16,750000	1	7,791250
16,766667	1	7,769050
16,783333	1	7,790900
16,800000	1	7,795000
16,816667	1	7,819350
16,833333	1	7,829750
16,850000	1	7,838350
16,866667	1	7,832950
16,883333	1	7,864300
16,900000	1	7,859200
16,916667	1	7,870450
16,933333	1	7,887350
16,950000	1	7,893900
16,966667	1	7,905400
16,983333	1	7,899500
17,000000	1	7,915750
17,016667	1	7,919900
17,033333	1	7,942300
17,050000	1	7,946600
17,066667	1	7,949700
17,083333	1	7,962750
17,100000	1	7,997400
17,116667	1	8,032950
17,133333	1	8,074650
17,150000	1	8,101500
17,166667	1	8,130700
17,183333	1	8,145000
17,200000	1	8,138000
17,216667	1	8,115350
17,233333	1	8,068850
17,250000	1	8,007350
17,266667	1	7,952800
17,283333	1	7,884000
17,300000	1	7,845950
17,316667	1	7,814700
17,333333	1	7,809600
17,350000	1	7,783500
17,366667	1	7,773650
17,383333	1	7,795400
17,400000	1	7,817200
17,416667	1	7,854000
17,433333	1	7,880600
17,450000	1	7,936900
17,466667	1	7,984700
17,483333	1	8,046500
17,500000	1	8,078250
17,516667	1	8,077050
17,533333	1	8,105100
17,550000	1	8,114750
17,566667	1	8,116600
17,583333	1	8,106550
17,600000	1	8,091900
17,616667	1	8,089850
17,633333	1	8,083500
17,650000	1	8,059150
17,666667	1	8,063250
17,683333	1	8,044500
17,700000	1	8,048650
17,716667	1	8,053050
17,733333	1	8,049150
17,750000	1	8,041200
17,766667	1	8,052850
17,783333	1	8,057100
17,800000	1	8,074600
17,816667	1	8,065000
17,833333	1	8,086800
17,850000	1	8,082300
17,866667	1	8,100500
17,883333	1	8,117750
17,900000	1	8,119750
17,916667	1	8,112900
17,933333	1	8,130600
17,950000	1	8,156950
17,966667	1	8,157250
17,983333	1	8,175450
18,000000	1	8,177850
18,016667	1	8,214850
18,033333	1	8,245000
18,050000	1	8,281450
18,066667	1	8,398950
18,083333	1	8,689050
18,100000	1	9,398700
18,116667	1	10,890250
18,133333	1	13,815950
18,150000	1	19,018050
18,166667	1	27,446450
18,183333	1	39,617651
18,200000	1	55,009251
18,216667	1	71,868451
18,233333	1	87,275801
18,250000	1	98,274101
18,266667	1	102,518002
18,283333	1	99,453901
18,300000	1	90,286001
18,316667	1	77,153451
18,333333	1	62,522201
18,350000	1	48,443351
18,366667	1	36,443451
18,383333	1	27,174900
18,400000	1	20,570800
18,416667	1	16,113800
18,433333	1	13,299400
18,450000	1	11,599050
18,466667	1	10,585100
18,483333	1	9,963600
18,500000	1	9,578500
18,516667	1	9,336050
18,533333	1	9,142850
18,550000	1	9,030550
18,566667	1	8,931750
18,583333	1	8,843500
18,600000	1	8,779650
18,616667	1	8,737000
18,633333	1	8,697350
18,650000	1	8,670150
18,666667	1	8,619050
18,683333	1	8,596600
18,700000	1	8,573050
18,716667	1	8,566000
18,733333	1	8,522250
18,750000	1	8,509050
18,766667	1	8,487600
18,783333	1	8,495800
18,800000	1	8,470800
18,816667	1	8,441450
18,833333	1	8,440350
18,850000	1	8,433300
18,866667	1	8,432100
18,883333	1	8,439150
18,900000	1	8,425550
18,916667	1	8,407550
18,933333	1	8,416500
18,950000	1	8,420050
18,966667	1	8,423900
18,983333	1	8,431000
19,000000	1	8,414750
19,016667	1	8,434400
19,033333	1	8,429700
19,050000	1	8,445100
19,066667	1	8,447950
19,083333	1	8,446850
19,100000	1	8,442250
19,116667	1	8,453350
19,133333	1	8,437800
19,150000	1	8,446200
19,166667	1	8,460500
19,183333	1	8,465050
19,200000	1	8,452300
19,216667	1	8,440150
19,233333	1	8,459500
19,250000	1	8,477550
19,266667	1	8,469950
19,283333	1	8,479050
19,300000	1	8,489100
19,316667	1	8,504800
19,333333	1	8,541300
19,350000	1	8,577300
19,366667	1	8,593750
19,383333	1	8,630100
19,400000	1	8,674200
19,416667	1	8,670200
19,433333	1	8,673850
19,450000	1	8,658100
19,466667	1	8,655300
19,483333	1	8,632750
19,500000	1	8,599750
19,516667	1	8,590250
19,533333	1	8,569250
19,550000	1	8,570250
19,566667	1	8,556650
19,583333	1	8,537900
19,600000	1	8,537200
19,616667	1	8,535150
19,633333	1	8,539900
19,650000	1	8,547800
19,666667	1	8,559250
19,683333	1	8,569750
19,700000	1	8,602150
19,716667	1	8,645650
19,733333	1	8,676300
19,750000	1	8,741200
19,766667	1	8,814150
19,783333	1	8,877350
19,800000	1	8,905950
19,816667	1	8,917500
19,833333	1	8,894650
19,850000	1	8,885650
19,866667	1	8,834550
19,883333	1	8,775850
19,900000	1	8,749200
19,916667	1	8,718350
19,933333	1	8,696150
19,950000	1	8,679100
19,966667	1	8,673250
19,983333	1	8,678100
20,000000	1	8,675800
20,016667	1	8,681350
20,033333	1	8,686050
20,050000	1	8,688750
20,066667	1	8,682600
20,083333	1	8,712900
20,100000	1	8,706700
20,116667	1	8,709850
20,133333	1	8,706200
20,150000	1	8,746800
20,166667	1	8,736300
20,183333	1	8,737450
20,200000	1	8,749650
20,216667	1	8,751650
20,233333	1	8,782200
20,250000	1	8,784000
20,266667	1	8,786000
20,283333	1	8,805550
20,300000	1	8,819350
20,316667	1	8,834300
20,333333	1	8,836100
20,350000	1	8,845200
20,366667	1	8,842450
20,383333	1	8,873800
20,400000	1	8,876650
20,416667	1	8,878900
20,433333	1	8,898450
20,450000	1	8,946600
20,466667	1	8,979700
20,483333	1	9,015650
20,500000	1	9,063300
20,516667	1	9,109200
20,533333	1	9,164950
20,550000	1	9,213950
20,566667	1	9,256300
20,583333	1	9,297900
20,600000	1	9,321650
20,616667	1	9,329200
20,633333	1	9,298100
20,650000	1	9,259750
20,666667	1	9,220250
20,683333	1	9,167700
20,700000	1	9,117300
20,716667	1	9,062550
20,733333	1	9,023400
20,750000	1	8,989950
20,766667	1	8,967950
20,783333	1	8,954450
20,800000	1	8,934200
20,816667	1	8,934050
20,833333	1	8,935850
20,850000	1	8,927600
20,866667	1	8,913650
20,883333	1	8,918200
20,900000	1	8,948750
20,916667	1	8,953400
20,933333	1	8,941500
20,950000	1	8,944950
20,966667	1	8,935700
20,983333	1	8,943750
21,000000	1	8,959550
21,016667	1	8,940400
21,033333	1	8,935100
21,050000	1	8,935500
21,066667	1	8,940650
21,083333	1	8,944650
21,100000	1	8,939600
21,116667	1	8,955050
21,133333	1	8,968300
21,150000	1	8,977100
21,166667	1	8,987150
21,183333	1	8,993600
21,200000	1	9,012700
21,216667	1	9,028950
21,233333	1	9,040900
21,250000	1	9,058200
21,266667	1	9,051350
21,283333	1	9,072050
21,300000	1	9,094200
21,316667	1	9,086950
21,333333	1	9,111550
21,350000	1	9,134200
21,366667	1	9,156750
21,383333	1	9,175500
21,400000	1	9,159350
21,416667	1	9,165100
21,433333	1	9,170700
21,450000	1	9,158850
21,466667	1	9,134000
21,483333	1	9,124450
21,500000	1	9,116150
21,516667	1	9,113450
21,533333	1	9,112800
21,550000	1	9,106250
21,566667	1	9,098300
21,583333	1	9,081650
21,600000	1	9,114100
21,616667	1	9,108750
21,633333	1	9,079450
21,650000	1	9,096700
21,666667	1	9,102650
21,683333	1	9,106900
21,700000	1	9,110200
21,716667	1	9,113650
21,733333	1	9,120600
21,750000	1	9,151800
21,766667	1	9,150750
21,783333	1	9,165700
21,800000	1	9,185200
21,816667	1	9,195300
21,833333	1	9,220650
21,850000	1	9,246650
21,866667	1	9,255800
21,883333	1	9,273550
21,900000	1	9,302450
21,916667	1	9,329500
21,933333	1	9,350000
21,950000	1	9,357150
21,966667	1	9,389200
21,983333	1	9,418500
22,000000	1	9,432450
22,016667	1	9,451250
22,033333	1	9,478300
22,050000	1	9,517700
22,066667	1	9,530250
22,083333	1	9,536700
22,100000	1	9,533550
22,116667	1	9,512500
22,133333	1	9,517300
22,150000	1	9,461300
22,166667	1	9,445550
22,183333	1	9,407550
22,200000	1	9,378200
22,216667	1	9,343950
22,233333	1	9,337000
22,250000	1	9,326200
22,266667	1	9,313500
22,283333	1	9,337250
22,300000	1	9,331600
22,316667	1	9,337050
22,333333	1	9,344950
22,350000	1	9,363700
22,366667	1	9,386950
22,383333	1	9,433900
22,400000	1	9,540100
22,416667	1	9,798000
22,433333	1	10,301800
22,450000	1	11,247300
22,466667	1	12,884450
22,483333	1	15,497250
22,500000	1	19,287600
22,516667	1	24,252850
22,533333	1	30,005000
22,550000	1	35,798901
22,566667	1	40,704201
22,583333	1	43,876151
22,600000	1	44,666951
22,616667	1	43,053151
22,633333	1	39,485751
22,650000	1	34,691301
22,666667	1	29,466100
22,683333	1	24,423850
22,700000	1	20,114800
22,716667	1	16,732400
22,733333	1	14,267400
22,750000	1	12,574550
22,766667	1	11,474050
22,783333	1	10,791850
22,800000	1	10,361800
22,816667	1	10,121650
22,833333	1	9,964950
22,850000	1	9,863450
22,866667	1	9,802200
22,883333	1	9,758200
22,900000	1	9,735500
22,916667	1	9,716300
22,933333	1	9,686700
22,950000	1	9,680050
22,966667	1	9,686450
22,983333	1	9,687150
23,000000	1	9,677900
23,016667	1	9,691050
23,033333	1	9,713250
23,050000	1	9,716300
23,066667	1	9,700100
23,083333	1	9,685600
23,100000	1	9,691050
23,116667	1	9,709800
23,133333	1	9,716000
23,150000	1	9,698050
23,166667	1	9,700300
23,183333	1	9,712650
23,200000	1	9,727450
23,216667	1	9,717850
23,233333	1	9,708950
23,250000	1	9,725750
23,266667	1	9,739250
23,283333	1	9,743750
23,300000	1	9,746400
23,316667	1	9,736750
23,333333	1	9,726850
23,350000	1	9,753150
23,366667	1	9,761900
23,383333	1	9,761500
23,400000	1	9,748100
23,416667	1	9,756300
23,433333	1	9,772750
23,450000	1	9,751550
23,466667	1	9,762850
23,483333	1	9,762950
23,500000	1	9,792500
23,516667	1	9,804600
23,533333	1	9,818350
23,550000	1	9,835250
23,566667	1	9,836300
23,583333	1	9,855500
23,600000	1	9,860150
23,616667	1	9,837800
23,633333	1	9,836450
23,650000	1	9,825000
23,666667	1	9,834250
23,683333	1	9,810100
23,700000	1	9,803200
23,716667	1	9,807100
23,733333	1	9,792700
23,750000	1	9,807600
23,766667	1	9,796000
23,783333	1	9,798200
23,800000	1	9,805750
23,816667	1	9,810150
23,833333	1	9,804750
23,850000	1	9,809100
23,866667	1	9,803300
23,883333	1	9,813400
23,900000	1	9,805750
23,916667	1	9,803000
23,933333	1	9,784150
23,950000	1	9,810000
23,966667	1	9,822500
23,983333	1	9,826300
24,000000	1	9,818100
24,016667	1	9,832350
24,033333	1	9,850650
24,050000	1	9,870950
24,066667	1	9,876200
24,083333	1	9,868450
24,100000	1	9,876250
24,116667	1	9,897100
24,133333	1	9,895000
24,150000	1	9,902050
24,166667	1	9,898600
24,183333	1	9,918800
24,200000	1	9,920300
24,216667	1	9,910200
24,233333	1	9,917400
24,250000	1	9,922850
24,266667	1	9,926400
24,283333	1	9,929850
24,300000	1	9,916850
24,316667	1	9,924550
24,333333	1	9,946650
24,350000	1	9,951900
24,366667	1	9,949050
24,383333	1	9,961400
24,400000	1	9,957900
24,416667	1	9,986650
24,433333	1	10,000650
24,450000	1	10,003950
24,466667	1	10,000700
24,483333	1	10,039900
24,500000	1	10,046450
24,516667	1	10,049000
24,533333	1	10,052850
24,550000	1	10,050600
24,566667	1	10,074550
24,583333	1	10,056950
24,600000	1	10,074800
24,616667	1	10,062650
24,633333	1	10,059900
24,650000	1	10,071550
24,666667	1	10,075850
24,683333	1	10,071600
24,700000	1	10,076950
24,716667	1	10,093650
24,733333	1	10,084700
24,750000	1	10,103450
24,766667	1	10,096350
24,783333	1	10,102300
24,800000	1	10,133550
24,816667	1	10,145550
24,833333	1	10,137350
24,850000	1	10,162350
24,866667	1	10,190500
24,883333	1	10,193250
24,900000	1	10,206900
24,916667	1	10,213750
24,933333	1	10,242000
24,950000	1	10,244200
24,966667	1	10,257650
24,983333	1	10,262600
25,000000	1	10,253050
25,016667	1	10,276100
25,033333	1	10,288300
25,050000	1	10,268500
25,066667	1	10,262600
25,083333	1	10,244850
25,100000	1	10,258400
25,116667	1	10,246200
25,133333	1	10,243300
25,150000	1	10,230300
25,166667	1	10,229900
25,183333	1	10,227100
25,200000	1	10,223700
25,216667	1	10,224100
25,233333	1	10,214000
25,250000	1	10,244150
25,266667	1	10,237600
25,283333	1	10,231500
25,300000	1	10,243050
25,316667	1	10,263700
25,333333	1	10,284050
25,350000	1	10,279800
25,366667	1	10,289250
25,383333	1	10,291500
25,400000	1	10,327250
25,416667	1	10,335550
25,433333	1	10,337650
25,450000	1	10,354100
25,466667	1	10,376200
25,483333	1	10,378700
25,500000	1	10,395150
25,516667	1	10,407200
25,533333	1	10,425600
25,550000	1	10,439850
25,566667	1	10,441700
25,583333	1	10,440800
25,600000	1	10,449850
25,616667	1	10,463350
25,633333	1	10,476950
25,650000	1	10,490900
25,666667	1	10,482650
25,683333	1	10,484000
25,700000	1	10,506100
25,716667	1	10,519350
25,733333	1	10,524450
25,750000	1	10,526350
25,766667	1	10,524250
25,783333	1	10,545850
25,800000	1	10,551550
25,816667	1	10,546700
25,833333	1	10,551900
25,850000	1	10,547550
25,866667	1	10,547000
25,883333	1	10,555150
25,900000	1	10,547000
25,916667	1	10,558300
25,933333	1	10,558200
25,950000	1	10,572950
25,966667	1	10,567650
25,983333	1	10,560450
26,000000	1	10,582550
26,016667	1	10,593500
26,033333	1	10,603650
26,050000	1	10,599000
26,066667	1	10,618300
26,083333	1	10,644000
26,100000	1	10,655250
26,116667	1	10,655000
26,133333	1	10,652700
26,150000	1	10,687050
26,166667	1	10,700250
26,183333	1	10,682700
26,200000	1	10,697550
26,216667	1	10,703800
26,233333	1	10,712050
26,250000	1	10,704350
26,266667	1	10,721850
26,283333	1	10,701850
26,300000	1	10,710850
26,316667	1	10,735500
26,333333	1	10,731300
26,350000	1	10,737200
26,366667	1	10,755200
26,383333	1	10,759450
26,400000	1	10,770500
26,416667	1	10,770750
26,433333	1	10,773550
26,450000	1	10,791950
26,466667	1	10,806800
26,483333	1	10,818650
26,500000	1	10,818100
26,516667	1	10,818200
26,533333	1	10,838150
26,550000	1	10,845450
26,566667	1	10,859400
26,583333	1	10,848600
26,600000	1	10,835800
26,616667	1	10,859900
26,633333	1	10,847350
26,650000	1	10,840350
26,666667	1	10,860900
26,683333	1	10,874800
26,700000	1	10,869450
26,716667	1	10,870000
26,733333	1	10,868000
26,750000	1	10,872400
26,766667	1	10,894600
26,783333	1	10,885700
26,800000	1	10,885700
26,816667	1	10,892450
26,833333	1	10,889050
26,850000	1	10,888900
26,866667	1	10,888400
26,883333	1	10,901600
26,900000	1	10,896550
26,916667	1	10,897300
26,933333	1	10,911800
26,950000	1	10,910600
26,966667	1	10,912450
26,983333	1	10,921000
27,000000	1	10,916850
27,016667	1	10,922100
27,033333	1	10,924450
27,050000	1	10,926000
27,066667	1	10,933750
27,083333	1	10,933750
27,100000	1	10,938950
27,116667	1	10,929400
27,133333	1	10,926600
27,150000	1	10,932600
27,166667	1	10,927200
27,183333	1	10,917100
27,200000	1	10,912300
27,216667	1	10,921750
27,233333	1	10,908600
27,250000	1	10,922400
27,266667	1	10,908550
27,283333	1	10,912800
27,300000	1	10,914850
27,316667	1	10,924550
27,333333	1	10,921900
27,350000	1	10,918850
27,366667	1	10,942500
27,383333	1	10,921400
27,400000	1	10,936250
27,416667	1	10,914150
27,433333	1	10,920150
27,450000	1	10,932450
27,466667	1	10,931250
27,483333	1	10,927200
27,500000	1	10,937700
27,516667	1	10,933850
27,533333	1	10,948150
27,550000	1	10,943400
27,566667	1	10,936900
27,583333	1	10,923750
27,600000	1	10,953450
27,616667	1	10,938950
27,633333	1	10,940450
27,650000	1	10,941600
27,666667	1	10,964750
27,683333	1	10,977450
27,700000	1	10,965050
27,716667	1	10,958000
27,733333	1	10,982000
27,750000	1	10,986700
27,766667	1	10,983350
27,783333	1	10,972450
27,800000	1	10,990550
27,816667	1	10,979700
27,833333	1	10,998050
27,850000	1	11,002250
27,866667	1	10,997300
27,883333	1	10,987300
27,900000	1	11,012400
27,916667	1	11,007050
27,933333	1	11,018200
27,950000	1	11,023250
27,966667	1	11,043600
27,983333	1	11,059850
28,000000	1	11,067550
28,016667	1	11,075950
28,033333	1	11,075500
28,050000	1	11,108950
28,066667	1	11,137050
28,083333	1	11,141250
28,100000	1	11,141100
28,116667	1	11,184150
28,133333	1	11,209100
28,150000	1	11,232350
28,166667	1	11,233600
28,183333	1	11,270500
28,200000	1	11,299850
28,216667	1	11,325800
28,233333	1	11,349350
28,250000	1	11,371700
28,266667	1	11,405100
28,283333	1	11,430550
28,300000	1	11,464350
28,316667	1	11,495500
28,333333	1	11,520250
28,350000	1	11,542750
28,366667	1	11,579950
28,383333	1	11,597450
28,400000	1	11,622950
28,416667	1	11,647500
28,433333	1	11,670100
28,450000	1	11,684950
28,466667	1	11,710250
28,483333	1	11,724900
28,500000	1	11,727600
28,516667	1	11,759550
28,533333	1	11,764450
28,550000	1	11,770400
28,566667	1	11,774350
28,583333	1	11,787850
28,600000	1	11,815300
28,616667	1	11,808250
28,633333	1	11,815500
28,650000	1	11,832250
28,666667	1	11,834850
28,683333	1	11,849550
28,700000	1	11,839750
28,716667	1	11,846450
28,733333	1	11,851550
28,750000	1	11,844050
28,766667	1	11,842600
28,783333	1	11,826100
28,800000	1	11,845950
28,816667	1	11,846800
28,833333	1	11,851000
28,850000	1	11,842650
28,866667	1	11,835800
28,883333	1	11,844950
28,900000	1	11,835950
28,916667	1	11,856350
28,933333	1	11,832800
28,950000	1	11,852950
28,966667	1	11,853000
28,983333	1	11,870250
29,000000	1	11,855850
29,016667	1	11,861000
29,033333	1	11,861850
29,050000	1	11,880000
29,066667	1	11,871150
29,083333	1	11,873600
29,100000	1	11,858350
29,116667	1	11,881350
29,133333	1	11,889850
29,150000	1	11,874800
29,166667	1	11,879400
29,183333	1	11,855950
29,200000	1	11,884850
29,216667	1	11,859250
29,233333	1	11,861650
29,250000	1	11,848100
29,266667	1	11,844250
29,283333	1	11,855200
29,300000	1	11,841500
29,316667	1	11,828100
29,333333	1	11,835450
29,350000	1	11,839000
29,366667	1	11,824250
29,383333	1	11,823000
29,400000	1	11,807450
29,416667	1	11,809800
29,433333	1	11,814500
29,450000	1	11,812300
29,466667	1	11,804200
29,483333	1	11,795100
29,500000	1	11,800450
29,516667	1	11,798450
29,533333	1	11,787150
29,550000	1	11,777750
29,566667	1	11,772850
29,583333	1	11,775600
29,600000	1	11,755050
29,616667	1	11,748350
29,633333	1	11,753150
29,650000	1	11,764250
29,666667	1	11,758250
29,683333	1	11,752350
29,700000	1	11,761600
29,716667	1	11,759300
29,733333	1	11,762050
29,750000	1	11,743750
29,766667	1	11,735500
29,783333	1	11,744800
29,800000	1	11,742400
29,816667	1	11,745800
29,833333	1	11,737500
29,850000	1	11,730800
29,866667	1	11,718400
29,883333	1	11,745950
29,900000	1	11,719550
29,916667	1	11,720750
29,933333	1	11,733050
29,950000	1	11,747850
29,966667	1	11,750100
29,983333	1	11,749900
30,000000	1	11,749750
30,016667	1	11,753450
30,033333	1	11,748550
30,050000	1	11,758800
30,066667	1	11,752200
30,083333	1	11,783650
30,100000	1	11,791600
30,116667	1	11,795900
30,133333	1	11,793400
30,150000	1	11,796000
30,166667	1	11,800200
30,183333	1	11,805900
30,200000	1	11,816300
30,216667	1	11,825400
30,233333	1	11,840700
30,250000	1	11,836550
30,266667	1	11,852700
30,283333	1	11,858850
30,300000	1	11,865800
30,316667	1	11,851800
30,333333	1	11,875200
30,350000	1	11,871350
30,366667	1	11,856200
30,383333	1	11,863800
30,400000	1	11,868250
30,416667	1	11,881200
30,433333	1	11,888850
30,450000	1	11,872450
30,466667	1	11,883550
30,483333	1	11,891800
30,500000	1	11,880300
30,516667	1	11,875350
30,533333	1	11,892500
30,550000	1	11,896400
30,566667	1	11,918550
30,583333	1	11,903900
30,600000	1	11,905850
30,616667	1	11,917950
30,633333	1	11,917000
30,650000	1	11,929900
30,666667	1	11,928650
30,683333	1	11,933900
30,700000	1	11,941900
30,716667	1	11,965150
30,733333	1	11,962300
30,750000	1	11,952250
30,766667	1	11,949450
30,783333	1	11,979800
30,800000	1	11,984500
30,816667	1	11,986650
30,833333	1	11,980900
30,850000	1	11,991600
30,866667	1	12,019900
30,883333	1	12,018000
30,900000	1	11,993400
30,916667	1	12,007250
30,933333	1	12,030850
30,950000	1	12,037050
30,966667	1	12,033650
30,983333	1	12,044050
31,000000	1	12,045550
31,016667	1	12,059950
31,033333	1	12,062150
31,050000	1	12,036150
31,066667	1	12,034450
31,083333	1	12,062800
31,100000	1	12,070200
31,116667	1	12,059600
31,133333	1	12,066150
31,150000	1	12,072350
31,166667	1	12,061350
31,183333	1	12,071850
31,200000	1	12,062050
31,216667	1	12,069000
31,233333	1	12,085600
31,250000	1	12,103150
31,266667	1	12,119650
31,283333	1	12,121700
31,300000	1	12,110650
31,316667	1	12,138950
31,333333	1	12,140050
31,350000	1	12,129250
31,366667	1	12,151900
31,383333	1	12,150950
31,400000	1	12,149950
31,416667	1	12,160450
31,433333	1	12,178550
31,450000	1	12,188800
31,466667	1	12,210200
31,483333	1	12,205600
31,500000	1	12,200700
31,516667	1	12,217950
31,533333	1	12,207700
31,550000	1	12,249900
31,566667	1	12,251000
31,583333	1	12,252350
31,600000	1	12,260050
31,616667	1	12,262500
31,633333	1	12,257650
31,650000	1	12,244500
31,666667	1	12,256900
31,683333	1	12,269500
31,700000	1	12,256150
31,716667	1	12,251800
31,733333	1	12,246000
31,750000	1	12,252600
31,766667	1	12,242150
31,783333	1	12,247500
31,800000	1	12,250750
31,816667	1	12,234250
31,833333	1	12,230650
31,850000	1	12,277050
31,866667	1	12,271050
31,883333	1	12,267150
31,900000	1	12,248800
31,916667	1	12,253150
31,933333	1	12,275950
31,950000	1	12,267200
31,966667	1	12,259250
31,983333	1	12,267600
32,000000	1	12,293250
32,016667	1	12,307350
32,033333	1	12,299500
32,050000	1	12,280500
32,066667	1	12,299300
32,083333	1	12,304050
32,100000	1	12,292750
32,116667	1	12,307750
32,133333	1	12,290650
32,150000	1	12,297250
32,166667	1	12,317000
32,183333	1	12,321900
32,200000	1	12,319150
32,216667	1	12,326800
32,233333	1	12,337150
32,250000	1	12,329000
32,266667	1	12,332600
32,283333	1	12,336150
32,300000	1	12,342500
32,316667	1	12,351450
32,333333	1	12,337200
32,350000	1	12,332850
32,366667	1	12,350750
32,383333	1	12,370650
32,400000	1	12,359900
32,416667	1	12,373200
32,433333	1	12,370000
32,450000	1	12,360950
32,466667	1	12,366250
32,483333	1	12,387600
32,500000	1	12,371750
32,516667	1	12,385250
32,533333	1	12,395650
32,550000	1	12,396400
32,566667	1	12,384600
32,583333	1	12,398500
32,600000	1	12,391700
32,616667	1	12,415300
32,633333	1	12,420050
32,650000	1	12,410800
32,666667	1	12,398000
32,683333	1	12,414950
32,700000	1	12,433400
32,716667	1	12,405150
32,733333	1	12,421450
32,750000	1	12,409250
32,766667	1	12,434100
32,783333	1	12,443050
32,800000	1	12,430350
32,816667	1	12,427700
32,833333	1	12,465550
32,850000	1	12,460350
32,866667	1	12,458350
32,883333	1	12,448800
32,900000	1	12,454000
32,916667	1	12,467750
32,933333	1	12,465750
32,950000	1	12,461250
32,966667	1	12,469750
32,983333	1	12,481400
33,000000	1	12,510650
33,016667	1	12,511250
33,033333	1	12,504550
33,050000	1	12,493100
33,066667	1	12,493600
33,083333	1	12,518100
33,100000	1	12,506550
33,116667	1	12,506550
33,133333	1	12,536250
33,150000	1	12,554800
33,166667	1	12,556250
33,183333	1	12,550800
33,200000	1	12,551250
33,216667	1	12,573350
33,233333	1	12,589050
33,250000	1	12,585900
33,266667	1	12,566250
33,283333	1	12,564500
33,300000	1	12,605000
33,316667	1	12,595800
33,333333	1	12,589550
33,350000	1	12,591000
33,366667	1	12,597550
33,383333	1	12,598250
33,400000	1	12,593450
33,416667	1	12,588600
33,433333	1	12,589800
33,450000	1	12,616450
33,466667	1	12,604500
33,483333	1	12,609700
33,500000	1	12,602750
33,516667	1	12,617000
33,533333	1	12,622450
33,550000	1	12,640000
33,566667	1	12,638300
33,583333	1	12,658850
33,600000	1	12,663550
33,616667	1	12,679050
33,633333	1	12,666450
33,650000	1	12,706250
33,666667	1	12,732500
33,683333	1	12,739650
33,700000	1	12,740400
33,716667	1	12,756450
33,733333	1	12,766300
33,750000	1	12,795300
33,766667	1	12,799850
33,783333	1	12,810900
33,800000	1	12,836850
33,816667	1	12,842600
33,833333	1	12,829650
33,850000	1	12,831650
33,866667	1	12,850650
33,883333	1	12,835900
33,900000	1	12,859350
33,916667	1	12,850750
33,933333	1	12,829500
33,950000	1	12,846400
33,966667	1	12,838200
33,983333	1	12,860750
34,000000	1	12,843350
34,016667	1	12,825950
34,033333	1	12,812100
34,050000	1	12,814750
34,066667	1	12,807650
34,083333	1	12,797350
34,100000	1	12,804400
34,116667	1	12,807350
34,133333	1	12,828650
34,150000	1	12,814650
34,166667	1	12,802350
34,183333	1	12,796550
34,200000	1	12,803300
34,216667	1	12,818300
34,233333	1	12,792550
34,250000	1	12,805500
34,266667	1	12,804350
34,283333	1	12,822850
34,300000	1	12,811000
34,316667	1	12,822550
34,333333	1	12,816550
34,350000	1	12,846750
34,366667	1	12,834300
34,383333	1	12,824050
34,400000	1	12,842500
34,416667	1	12,822150
34,433333	1	12,846950
34,450000	1	12,850800
34,466667	1	12,852150
34,483333	1	12,856450
34,500000	1	12,856450
34,516667	1	12,868700
34,533333	1	12,875250
34,550000	1	12,875400
34,566667	1	12,877250
34,583333	1	12,890100
34,600000	1	12,895100
34,616667	1	12,880150
34,633333	1	12,874700
34,650000	1	12,894350
34,666667	1	12,908100
34,683333	1	12,904150
34,700000	1	12,904650
34,716667	1	12,903700
34,733333	1	12,903500
34,750000	1	12,909850
34,766667	1	12,912100
34,783333	1	12,916550
34,800000	1	12,918850
34,816667	1	12,931100
34,833333	1	12,934350
34,850000	1	12,926700
34,866667	1	12,931900
34,883333	1	12,949900
34,900000	1	12,948400
34,916667	1	12,953550
34,933333	1	12,961950
34,950000	1	12,968000
34,966667	1	12,982350
34,983333	1	12,980750
35,000000	1	12,973200
35,016667	1	12,981200
35,033333	1	13,003250
35,050000	1	12,991600
35,066667	1	12,991400
35,083333	1	13,005600
35,100000	1	12,998650
35,116667	1	13,019250
35,133333	1	13,015450
35,150000	1	13,003900
35,166667	1	13,010200
35,183333	1	13,029900
35,200000	1	13,035250
35,216667	1	13,032300
35,233333	1	13,032700
35,250000	1	13,036850
35,266667	1	13,035000
35,283333	1	13,041300
35,300000	1	13,043550
35,316667	1	13,050850
35,333333	1	13,054250
35,350000	1	13,064500
35,366667	1	13,069300
35,383333	1	13,067350
35,400000	1	13,060600
35,416667	1	13,093200
35,433333	1	13,085950
35,450000	1	13,081850
35,466667	1	13,094850
35,483333	1	13,100000
35,500000	1	13,099800
35,516667	1	13,103200
35,533333	1	13,106600
35,550000	1	13,128400
35,566667	1	13,143150
35,583333	1	13,150600
35,600000	1	13,141900
35,616667	1	13,129900
35,633333	1	13,140700
35,650000	1	13,158450
35,666667	1	13,155400
35,683333	1	13,129050
35,700000	1	13,149250
35,716667	1	13,168500
35,733333	1	13,176450
35,750000	1	13,160500
35,766667	1	13,160600
35,783333	1	13,161750
35,800000	1	13,169450
35,816667	1	13,171400
35,833333	1	13,178400
35,850000	1	13,180800
35,866667	1	13,195350
35,883333	1	13,188600
35,900000	1	13,194050
35,916667	1	13,197750
35,933333	1	13,195550
35,950000	1	13,218650
35,966667	1	13,233800
35,983333	1	13,195650
36,000000	1	13,214100
36,016667	1	13,233050
36,033333	1	13,236000
36,050000	1	13,247250
36,066667	1	13,250100
36,083333	1	13,248400
36,100000	1	13,253250
36,116667	1	13,248800
36,133333	1	13,239150
36,150000	1	13,258550
36,166667	1	13,272000
36,183333	1	13,287550
36,200000	1	13,286100
36,216667	1	13,272650
36,233333	1	13,282250
36,250000	1	13,296400
36,266667	1	13,297900
36,283333	1	13,306050
36,300000	1	13,295700
36,316667	1	13,299950
36,333333	1	13,324700
36,350000	1	13,326750
36,366667	1	13,327550
36,383333	1	13,324050
36,400000	1	13,346500
36,416667	1	13,359300
36,433333	1	13,348950
36,450000	1	13,351700
36,466667	1	13,366850
36,483333	1	13,373150
36,500000	1	13,383200
36,516667	1	13,366600
36,533333	1	13,366600
36,550000	1	13,383100
36,566667	1	13,386750
36,583333	1	13,395400
36,600000	1	13,394150
36,616667	1	13,397300
36,633333	1	13,418300
36,650000	1	13,425800
36,666667	1	13,411300
36,683333	1	13,410150
36,700000	1	13,426200
36,716667	1	13,437700
36,733333	1	13,434850
36,750000	1	13,430800
36,766667	1	13,437350
36,783333	1	13,458250
36,800000	1	13,470200
36,816667	1	13,471250
36,833333	1	13,469650
36,850000	1	13,469750
36,866667	1	13,496550
36,883333	1	13,498700
36,900000	1	13,494500
36,916667	1	13,490650
36,933333	1	13,510450
36,950000	1	13,523850
36,966667	1	13,521200
36,983333	1	13,518450
37,000000	1	13,521800
37,016667	1	13,549300
37,033333	1	13,542450
37,050000	1	13,537900
37,066667	1	13,544500
37,083333	1	13,571050
37,100000	1	13,568350
37,116667	1	13,575050
37,133333	1	13,565750
37,150000	1	13,577150
37,166667	1	13,611700
37,183333	1	13,614250
37,200000	1	13,617600
37,216667	1	13,634300
37,233333	1	13,666200
37,250000	1	13,661300
37,266667	1	13,662500
37,283333	1	13,656500
37,300000	1	13,653350
37,316667	1	13,683900
37,333333	1	13,685400
37,350000	1	13,660900
37,366667	1	13,673650
37,383333	1	13,671200
37,400000	1	13,698650
37,416667	1	13,676850
37,433333	1	13,682850
37,450000	1	13,681450
37,466667	1	13,709850
37,483333	1	13,714400
37,500000	1	13,708950
37,516667	1	13,691900
37,533333	1	13,720900
37,550000	1	13,728150
37,566667	1	13,724400
37,583333	1	13,718200
37,600000	1	13,710900
37,616667	1	13,737000
37,633333	1	13,746450
37,650000	1	13,744500
37,666667	1	13,753250
37,683333	1	13,759100
37,700000	1	13,779700
37,716667	1	13,788050
37,733333	1	13,769400
37,750000	1	13,777700
37,766667	1	13,807000
37,783333	1	13,794900
37,800000	1	13,806950
37,816667	1	13,814750
37,833333	1	13,824500
37,850000	1	13,836800
37,866667	1	13,830800
37,883333	1	13,820050
37,900000	1	13,808500
37,916667	1	13,822150
37,933333	1	13,826050
37,950000	1	13,814450
37,966667	1	13,793350
37,983333	1	13,808450
38,000000	1	13,808750
38,016667	1	13,795000
38,033333	1	13,780450
38,050000	1	13,770550
38,066667	1	13,796650
38,083333	1	13,791550
38,100000	1	13,784400
38,116667	1	13,778700
38,133333	1	13,780600
38,150000	1	13,797350
38,166667	1	13,792000
38,183333	1	13,781200
38,200000	1	13,785000
38,216667	1	13,801100
38,233333	1	13,816100
38,250000	1	13,800600
38,266667	1	13,813650
38,283333	1	13,806150
38,300000	1	13,823350
38,316667	1	13,824300
38,333333	1	13,816800
38,350000	1	13,829000
38,366667	1	13,843600
38,383333	1	13,845750
38,400000	1	13,838200
38,416667	1	13,839700
38,433333	1	13,861250
38,450000	1	13,881800
38,466667	1	13,859600
38,483333	1	13,872000
38,500000	1	13,876950
38,516667	1	13,888850
38,533333	1	13,895100
38,550000	1	13,896200
38,566667	1	13,895000
38,583333	1	13,882800
38,600000	1	13,917350
38,616667	1	13,911500
38,633333	1	13,914850
38,650000	1	13,917400
38,666667	1	13,933600
38,683333	1	13,949350
38,700000	1	13,944150
38,716667	1	13,933050
38,733333	1	13,947150
38,750000	1	13,974850
38,766667	1	13,977500
38,783333	1	13,975850
38,800000	1	13,976600
38,816667	1	13,982600
38,833333	1	13,998650
38,850000	1	13,992300
38,866667	1	13,986550
38,883333	1	13,975900
38,900000	1	14,014650
38,916667	1	14,008900
38,933333	1	13,990450
38,950000	1	14,002400
38,966667	1	14,016600
38,983333	1	14,028050
39,000000	1	14,027950
39,016667	1	14,018650
39,033333	1	14,029350
39,050000	1	14,036950
39,066667	1	14,047950
39,083333	1	14,047300
39,100000	1	14,050000
39,116667	1	14,038100
39,133333	1	14,067950
39,150000	1	14,066450
39,166667	1	14,069550
39,183333	1	14,066500
39,200000	1	14,080750
39,216667	1	14,085100
39,233333	1	14,093400
39,250000	1	14,083050
39,266667	1	14,084600
39,283333	1	14,111300
39,300000	1	14,117500
39,316667	1	14,112500
39,333333	1	14,116750
39,350000	1	14,117400
39,366667	1	14,122150
39,383333	1	14,129750
39,400000	1	14,124350
39,416667	1	14,123450
39,433333	1	14,141950
39,450000	1	14,144400
39,466667	1	14,148350
39,483333	1	14,138950
39,500000	1	14,149450
39,516667	1	14,158700
39,533333	1	14,162100
39,550000	1	14,173200
39,566667	1	14,169500
39,583333	1	14,178650
39,600000	1	14,183250
39,616667	1	14,178750
39,633333	1	14,184800
39,650000	1	14,186350
39,666667	1	14,203350
39,683333	1	14,199950
39,700000	1	14,203150
39,716667	1	14,205200
39,733333	1	14,224700
39,750000	1	14,238050
39,766667	1	14,219600
39,783333	1	14,224950
39,800000	1	14,226250
39,816667	1	14,234300
39,833333	1	14,267400
39,850000	1	14,252150
39,866667	1	14,249150
39,883333	1	14,262750
39,900000	1	14,269150
39,916667	1	14,264650
39,933333	1	14,272750
39,950000	1	14,271550
39,966667	1	14,279850
39,983333	1	14,291450
40,000000	1	14,298500
40,016667	1	14,297650
40,033333	1	14,308000
40,050000	1	14,315400
40,066667	1	14,324550
40,083333	1	14,318650
40,100000	1	14,327000
40,116667	1	14,329600
40,133333	1	14,345850
40,150000	1	14,342700
40,166667	1	14,353550
40,183333	1	14,340650
40,200000	1	14,372800
40,216667	1	14,375750
40,233333	1	14,366400
40,250000	1	14,371650
40,266667	1	14,395500
40,283333	1	14,391150
40,300000	1	14,400050
40,316667	1	14,392450
40,333333	1	14,408150
40,350000	1	14,420250
40,366667	1	14,412600
40,383333	1	14,419200
40,400000	1	14,419050
40,416667	1	14,440600
40,433333	1	14,466250
40,450000	1	14,459800
40,466667	1	14,467250
40,483333	1	14,479450
40,500000	1	14,508250
40,516667	1	14,509350
40,533333	1	14,520750
40,550000	1	14,534650
40,566667	1	14,559350
40,583333	1	14,557550
40,600000	1	14,563650
40,616667	1	14,582700
40,633333	1	14,590650
40,650000	1	14,607400
40,666667	1	14,607850
40,683333	1	14,601150
40,700000	1	14,621650
40,716667	1	14,635950
40,733333	1	14,649200
40,750000	1	14,640450
40,766667	1	14,666950
40,783333	1	14,642650
40,800000	1	14,676400
40,816667	1	14,667500
40,833333	1	14,669550
40,850000	1	14,669450
40,866667	1	14,671650
40,883333	1	14,676250
40,900000	1	14,667450
40,916667	1	14,683350
40,933333	1	14,683150
40,950000	1	14,693650
40,966667	1	14,695400
40,983333	1	14,701650
41,000000	1	14,710150
41,016667	1	14,706500
41,033333	1	14,708400
41,050000	1	14,714050
41,066667	1	14,722350
41,083333	1	14,723400
41,100000	1	14,738950
41,116667	1	14,725250
41,133333	1	14,743600
41,150000	1	14,747650
41,166667	1	14,760750
41,183333	1	14,768200
41,200000	1	14,783800
41,216667	1	14,777900
41,233333	1	14,783750
41,250000	1	14,810250
41,266667	1	14,807100
41,283333	1	14,810150
41,300000	1	14,816700
41,316667	1	14,822950
41,333333	1	14,844800
41,350000	1	14,850950
41,366667	1	14,849950
41,383333	1	14,860300
41,400000	1	14,867950
41,416667	1	14,883650
41,433333	1	14,873300
41,450000	1	14,879350
41,466667	1	14,885400
41,483333	1	14,909050
41,500000	1	14,907950
41,516667	1	14,915450
41,533333	1	14,920350
41,550000	1	14,928700
41,566667	1	14,933900
41,583333	1	14,940200
41,600000	1	14,942450
41,616667	1	14,947150
41,633333	1	14,969950
41,650000	1	14,973800
41,666667	1	14,956600
41,683333	1	14,979700
41,700000	1	14,982650
41,716667	1	14,981150
41,733333	1	15,001450
41,750000	1	14,994600
41,766667	1	15,007850
41,783333	1	15,022150
41,800000	1	15,029500
41,816667	1	15,018350
41,833333	1	15,028750
41,850000	1	15,041250
41,866667	1	15,058800
41,883333	1	15,043300
41,900000	1	15,019050
41,916667	1	14,977500
41,933333	1	14,910600
41,950000	1	14,791650
41,966667	1	14,650850
41,983333	1	14,456350
42,000000	1	14,247550
42,016667	1	14,016550
42,033333	1	13,738600
42,050000	1	13,433750
42,066667	1	13,097300
42,083333	1	12,746900
42,100000	1	12,367450
42,116667	1	11,944000
42,133333	1	11,530450
42,150000	1	11,091300
42,166667	1	10,641350
42,183333	1	10,178050
42,200000	1	9,733500
42,216667	1	9,325250
42,233333	1	8,921200
42,250000	1	8,582050
42,266667	1	8,242350
42,283333	1	7,968950
42,300000	1	7,715000
42,316667	1	7,500900
42,333333	1	7,323600
42,350000	1	7,161500
42,366667	1	7,035750
42,383333	1	6,909500
42,400000	1	6,818850
42,416667	1	6,744650
42,433333	1	6,660900
42,450000	1	6,573800
42,466667	1	6,510050
42,483333	1	6,442350
42,500000	1	6,353700
42,516667	1	6,298350
42,533333	1	6,229350
42,550000	1	6,162850
42,566667	1	6,094800
42,583333	1	6,024000
42,600000	1	5,981000
42,616667	1	5,918950
42,633333	1	5,867500
42,650000	1	5,809400
42,666667	1	5,748550
42,683333	1	5,696450
42,700000	1	5,647200
42,716667	1	5,594600
42,733333	1	5,553650
42,750000	1	5,495650
42,766667	1	5,453900
42,783333	1	5,407950
42,800000	1	5,370550
42,816667	1	5,316150
42,833333	1	5,272900
42,850000	1	5,233500
42,866667	1	5,186150
42,883333	1	5,154150
42,900000	1	5,110750
42,916667	1	5,072500
42,933333	1	5,039050
42,950000	1	4,998550
42,966667	1	4,963550
42,983333	1	4,928200
43,000000	1	4,893350
43,016667	1	4,861700
43,033333	1	4,834750
43,050000	1	4,794800
43,066667	1	4,766000
43,083333	1	4,745350
43,100000	1	4,708500
43,116667	1	4,675300
43,133333	1	4,655350
43,150000	1	4,626250
43,166667	1	4,603950
43,183333	1	4,578250
43,200000	1	4,555650
43,216667	1	4,534750
43,233333	1	4,518000
43,250000	1	4,495950
43,266667	1	4,477800
43,283333	1	4,467500
43,300000	1	4,441250
43,316667	1	4,427200
43,333333	1	4,406200
43,350000	1	4,385050
43,366667	1	4,374150
43,383333	1	4,363300
43,400000	1	4,342950
43,416667	1	4,326350
43,433333	1	4,322300
43,450000	1	4,299750
43,466667	1	4,282550
43,483333	1	4,268250
43,500000	1	4,253700
43,516667	1	4,233200
43,533333	1	4,216650
43,550000	1	4,202950
43,566667	1	4,191950
43,583333	1	4,166750
43,600000	1	4,159700
43,616667	1	4,140150
43,633333	1	4,126200
43,650000	1	4,106750
43,666667	1	4,086600
43,683333	1	4,077500
43,700000	1	4,059050
43,716667	1	4,044450
43,733333	1	4,018450
43,750000	1	3,997000
43,766667	1	3,985300
43,783333	1	3,955600
43,800000	1	3,936750
43,816667	1	3,924300
43,833333	1	3,898050
43,850000	1	3,878450
43,866667	1	3,859150
43,883333	1	3,826500
43,900000	1	3,808750
43,916667	1	3,790500
43,933333	1	3,764200
43,950000	1	3,736900
43,966667	1	3,716050
43,983333	1	3,699650
44,000000	1	3,676600
44,016667	1	3,646400
44,033333	1	3,623250
44,050000	1	3,592750
44,066667	1	3,575200
44,083333	1	3,540400
44,100000	1	3,517000
44,116667	1	3,493650
44,133333	1	3,467850
44,150000	1	3,432000
44,166667	1	3,414300
44,183333	1	3,383850
44,200000	1	3,354100
44,216667	1	3,333550
44,233333	1	3,309400
44,250000	1	3,280850
44,266667	1	3,256300
44,283333	1	3,234800
44,300000	1	3,203600
44,316667	1	3,174950
44,333333	1	3,138100
44,350000	1	3,117500
44,366667	1	3,093800
44,383333	1	3,059150
44,400000	1	3,035250
44,416667	1	3,005500
44,433333	1	2,984900
44,450000	1	2,954350
44,466667	1	2,926050
44,483333	1	2,901050
44,500000	1	2,870150
44,516667	1	2,831100
44,533333	1	2,807950
44,550000	1	2,782050
44,566667	1	2,756100
44,583333	1	2,732600
44,600000	1	2,714550
44,616667	1	2,680300
44,633333	1	2,659250
44,650000	1	2,629600
44,666667	1	2,597650
44,683333	1	2,567850
44,700000	1	2,548950
44,716667	1	2,519300
44,733333	1	2,481500
44,750000	1	2,464250
44,766667	1	2,438750
44,783333	1	2,412450
44,800000	1	2,384600
44,816667	1	2,357200
44,833333	1	2,333700
44,850000	1	2,308700
44,866667	1	2,287650
44,883333	1	2,271050
44,900000	1	2,248600
44,916667	1	2,225950
44,933333	1	2,193300
44,950000	1	2,172150
44,966667	1	2,153400
44,983333	1	2,131800
45,000000	1	2,110350
45,016667	1	2,081850
45,033333	1	2,058900
45,050000	1	2,035450
45,066667	1	2,029250
45,083333	1	1,996900
45,100000	1	1,972000
45,116667	1	1,960250
45,133333	1	1,932450
45,150000	1	1,907850
45,166667	1	1,889400
45,183333	1	1,877800
45,200000	1	1,849200
45,216667	1	1,832000
45,233333	1	1,820300
45,250000	1	1,796650
45,266667	1	1,771300
45,283333	1	1,749550
45,300000	1	1,729300
45,316667	1	1,714900
45,333333	1	1,693050
45,350000	1	1,666850
45,366667	1	1,664600
45,383333	1	1,640300
45,400000	1	1,609000
45,416667	1	1,594750
45,433333	1	1,592950
45,450000	1	1,564750
45,466667	1	1,550350
45,483333	1	1,526450
45,500000	1	1,513550
45,516667	1	1,499200
45,533333	1	1,478900
45,550000	1	1,461900
45,566667	1	1,446900
45,583333	1	1,428850
45,600000	1	1,421200
45,616667	1	1,409050
45,633333	1	1,379600
45,650000	1	1,366300
45,666667	1	1,360100
45,683333	1	1,347150
45,700000	1	1,327500
45,716667	1	1,308750
45,733333	1	1,297800
45,750000	1	1,289100
45,766667	1	1,274850
45,783333	1	1,263150
45,800000	1	1,248750
45,816667	1	1,236400
45,833333	1	1,223550
45,850000	1	1,210500
45,866667	1	1,204600
45,883333	1	1,193050
45,900000	1	1,167450
45,916667	1	1,154700
45,933333	1	1,140600
45,950000	1	1,138850
45,966667	1	1,116850
45,983333	1	1,109250
46,000000	1	1,123550
46,016667	1	1,092050
46,033333	1	1,075800
46,050000	1	1,064600
46,066667	1	1,051900
46,083333	1	1,043100
46,100000	1	1,038350
46,116667	1	1,018850
46,133333	1	1,016450
46,150000	1	1,007400
46,166667	1	1,007850
46,183333	1	0,989800
46,200000	1	0,989350
46,216667	1	0,978800
46,233333	1	0,966400
46,250000	1	0,944150
46,266667	1	0,933650
46,283333	1	0,942750
46,300000	1	0,924400
46,316667	1	0,911850
46,333333	1	0,902650
46,350000	1	0,895400
46,366667	1	0,884150
46,383333	1	0,890300
46,400000	1	0,866300
46,416667	1	0,866100
46,433333	1	0,865950
46,450000	1	0,851250
46,466667	1	0,840550
46,483333	1	0,837250
46,500000	1	0,833550
46,516667	1	0,811600
46,533333	1	0,815100
46,550000	1	0,791750
46,566667	1	0,792500
46,583333	1	0,794150
46,600000	1	0,785300
46,616667	1	0,767300
46,633333	1	0,763300
46,650000	1	0,761350
46,666667	1	0,760900
46,683333	1	0,743250
46,700000	1	0,731700
46,716667	1	0,731400
46,733333	1	0,723250
46,750000	1	0,728000
46,766667	1	0,712350
46,783333	1	0,710400
46,800000	1	0,706300
46,816667	1	0,711100
46,833333	1	0,691500
46,850000	1	0,681100
46,866667	1	0,688900
46,883333	1	0,689600
46,900000	1	0,668950
46,916667	1	0,668700
46,933333	1	0,663950
46,950000	1	0,649850
46,966667	1	0,648100
46,983333	1	0,638050
47,000000	1	0,640450
47,016667	1	0,630550
47,033333	1	0,624300
47,050000	1	0,629250
47,066667	1	0,619100
47,083333	1	0,617000
47,100000	1	0,602500
47,116667	1	0,597900
47,133333	1	0,607000
47,150000	1	0,598100
47,166667	1	0,581350
47,183333	1	0,590100
47,200000	1	0,587400
47,216667	1	0,586600
47,233333	1	0,567300
47,250000	1	0,568300
47,266667	1	0,579450
47,283333	1	0,562150
47,300000	1	0,562550
47,316667	1	0,552550
47,333333	1	0,538300
47,350000	1	0,539050
47,366667	1	0,535500
47,383333	1	0,543200
47,400000	1	0,522650
47,416667	1	0,538150
47,433333	1	0,534350
47,450000	1	0,513200
47,466667	1	0,519450
47,483333	1	0,524050
47,500000	1	0,506450
47,516667	1	0,506900
47,533333	1	0,496300
47,550000	1	0,494100
47,566667	1	0,508150
47,583333	1	0,502950
47,600000	1	0,488700
47,616667	1	0,492350
47,633333	1	0,502650
47,650000	1	0,494750
47,666667	1	0,503900
47,683333	1	0,504800
47,700000	1	0,484400
47,716667	1	0,490900
47,733333	1	0,494200
47,750000	1	0,483700
47,766667	1	0,485650
47,783333	1	0,485950
47,800000	1	0,476650
47,816667	1	0,469050
47,833333	1	0,464500
47,850000	1	0,457500
47,866667	1	0,455200
47,883333	1	0,462750
47,900000	1	0,464600
47,916667	1	0,449900
47,933333	1	0,450050
47,950000	1	0,451900
47,966667	1	0,465400
47,983333	1	0,464500
48,000000	1	0,442800
48,016667	1	0,447150
48,033333	1	0,447350
48,050000	1	0,441600
48,066667	1	0,430050
48,083333	1	0,440400
48,100000	1	0,430750
48,116667	1	0,445550
48,133333	1	0,433900
48,150000	1	0,449200
48,166667	1	0,433800
48,183333	1	0,449200
48,200000	1	0,451150
48,216667	1	0,443700
48,233333	1	0,426500
48,250000	1	0,432850
48,266667	1	0,441100
48,283333	1	0,435550
48,300000	1	0,423100
48,316667	1	0,419450
48,333333	1	0,417050
48,350000	1	0,427200
48,366667	1	0,420100
48,383333	1	0,428500
48,400000	1	0,420400
48,416667	1	0,430850
48,433333	1	0,417950
48,450000	1	0,409050
48,466667	1	0,407350
48,483333	1	0,429650
48,500000	1	0,429650
48,516667	1	0,405100
48,533333	1	0,421550
48,550000	1	0,407250
48,566667	1	0,403900
48,583333	1	0,419650
48,600000	1	0,407950
48,616667	1	0,398500
48,633333	1	0,411400
48,650000	1	0,399950
48,666667	1	0,416850
48,683333	1	0,396300
48,700000	1	0,405750
48,716667	1	0,419100
48,733333	1	0,400100
48,750000	1	0,411100
48,766667	1	0,410400
48,783333	1	0,396400
48,800000	1	0,416100
48,816667	1	0,393000
48,833333	1	0,397600
48,850000	1	0,387550
48,866667	1	0,410350
48,883333	1	0,399050
48,900000	1	0,398400
48,916667	1	0,405500
48,933333	1	0,394500
48,950000	1	0,413200
48,966667	1	0,406250
48,983333	1	0,405000
49,000000	1	0,408150
49,016667	1	0,415050
49,033333	1	0,409300
49,050000	1	0,401400
49,066667	1	0,408000
49,083333	1	0,390100
49,100000	1	0,412700
49,116667	1	0,420600
49,133333	1	0,390050
49,150000	1	0,401450
49,166667	1	0,406200
49,183333	1	0,412450
49,200000	1	0,406200
49,216667	1	0,405350
49,233333	1	0,393800
49,250000	1	0,411350
49,266667	1	0,414300
49,283333	1	0,409450
49,300000	1	0,395250
49,316667	1	0,401050
49,333333	1	0,402700
49,350000	1	0,414200
49,366667	1	0,399450
49,383333	1	0,410650
49,400000	1	0,409250
49,416667	1	0,408850
49,433333	1	0,396100
49,450000	1	0,395150
49,466667	1	0,396750
49,483333	1	0,403150
49,500000	1	0,404850
49,516667	1	0,415100
49,533333	1	0,403650
49,550000	1	0,425150
49,566667	1	0,403600
49,583333	1	0,412050
49,600000	1	0,407950
49,616667	1	0,413700
49,633333	1	0,406150
49,650000	1	0,412600
49,666667	1	0,405450
49,683333	1	0,417100
49,700000	1	0,418450
49,716667	1	0,415800
49,733333	1	0,412500
49,750000	1	0,430200
49,766667	1	0,424200
49,783333	1	0,434150
49,800000	1	0,426700
49,816667	1	0,434950
49,833333	1	0,428850
49,850000	1	0,440200
49,866667	1	0,420650
49,883333	1	0,421600
49,900000	1	0,408900
49,916667	1	0,418250
49,933333	1	0,426250
49,950000	1	0,424300
49,966667	1	0,439050
49,983333	1	0,433200
50,000000	1	0,420300
50,016667	1	0,447750
50,033333	1	0,433200
50,050000	1	0,432500
50,066667	1	0,424650
50,083333	1	0,437000
50,100000	1	0,433100
50,116667	1	0,441850
50,133333	1	0,410150
50,150000	1	0,429700
50,166667	1	0,436550
50,183333	1	0,431550
50,200000	1	0,422000
50,216667	1	0,430350
50,233333	1	0,437950
50,250000	1	0,423900
50,266667	1	0,432700
50,283333	1	0,427500
50,300000	1	0,431250
50,316667	1	0,429000
50,333333	1	0,446550
50,350000	1	0,439100
50,366667	1	0,447600
50,383333	1	0,417400
50,400000	1	0,452950
50,416667	1	0,430550
50,433333	1	0,439900
50,450000	1	0,453550
50,466667	1	0,450450
50,483333	1	0,457200
50,500000	1	0,462550
50,516667	1	0,445450
50,533333	1	0,444150
50,550000	1	0,460750
50,566667	1	0,448950
50,583333	1	0,441150
50,600000	1	0,447750
50,616667	1	0,452250
50,633333	1	0,460650
50,650000	1	0,443150
50,666667	1	0,462750
50,683333	1	0,451400
50,700000	1	0,448250
50,716667	1	0,456400
50,733333	1	0,444250
50,750000	1	0,462950
50,766667	1	0,450350
50,783333	1	0,462600
50,800000	1	0,457200
50,816667	1	0,454100
50,833333	1	0,450250
50,850000	1	0,463900
50,866667	1	0,462650
50,883333	1	0,449050
50,900000	1	0,460000
50,916667	1	0,457000
50,933333	1	0,465800
50,950000	1	0,453750
50,966667	1	0,462700
50,983333	1	0,465300
51,000000	1	0,471450
51,016667	1	0,478800
51,033333	1	0,470100
51,050000	1	0,479800
51,066667	1	0,458200
51,083333	1	0,467450
51,100000	1	0,471100
51,116667	1	0,463200
51,133333	1	0,473850
51,150000	1	0,489700
51,166667	1	0,476900
51,183333	1	0,486400
51,200000	1	0,491300
51,216667	1	0,491300
51,233333	1	0,484400
51,250000	1	0,480850
51,266667	1	0,490500
51,283333	1	0,489800
51,300000	1	0,491500
51,316667	1	0,503550
51,333333	1	0,501750
51,350000	1	0,492900
51,366667	1	0,488300
51,383333	1	0,489200
51,400000	1	0,482000
51,416667	1	0,494800
51,433333	1	0,485900
51,450000	1	0,483500
51,466667	1	0,503500
51,483333	1	0,488700
51,500000	1	0,493400
51,516667	1	0,497850
51,533333	1	0,490600
51,550000	1	0,497100
51,566667	1	0,489750
51,583333	1	0,503300
51,600000	1	0,495350
51,616667	1	0,503850
51,633333	1	0,502300
51,650000	1	0,497600
51,666667	1	0,495100
51,683333	1	0,516400
51,700000	1	0,496300
51,716667	1	0,503150
51,733333	1	0,499550
51,750000	1	0,506500
51,766667	1	0,510550
51,783333	1	0,509200
51,800000	1	0,510450
51,816667	1	0,512050
51,833333	1	0,515950
51,850000	1	0,525450
51,866667	1	0,508700
51,883333	1	0,514900
51,900000	1	0,527100
51,916667	1	0,528800
51,933333	1	0,526300
51,950000	1	0,524750
51,966667	1	0,529500
51,983333	1	0,527050
52,000000	1	0,534700
52,016667	1	0,533350
52,033333	1	0,538400
52,050000	1	0,535750
52,066667	1	0,533150
52,083333	1	0,532950
52,100000	1	0,522100
52,116667	1	0,532300
52,133333	1	0,533900
52,150000	1	0,545600
52,166667	1	0,538100
52,183333	1	0,532150
52,200000	1	0,541950
52,216667	1	0,554700
52,233333	1	0,554350
52,250000	1	0,547650
52,266667	1	0,543900
52,283333	1	0,544350
52,300000	1	0,545550
52,316667	1	0,538050
52,333333	1	0,553400
52,350000	1	0,558150
52,366667	1	0,546200
52,383333	1	0,562300
52,400000	1	0,563150
52,416667	1	0,561150
52,433333	1	0,554400
52,450000	1	0,551700
52,466667	1	0,563700
52,483333	1	0,548350
52,500000	1	0,563400
52,516667	1	0,559000
52,533333	1	0,568550
52,550000	1	0,577300
52,566667	1	0,579250
52,583333	1	0,572350
52,600000	1	0,571400
52,616667	1	0,565700
52,633333	1	0,573450
52,650000	1	0,568950
52,666667	1	0,558750
52,683333	1	0,576600
52,700000	1	0,568250
52,716667	1	0,572700
52,733333	1	0,575300
52,750000	1	0,577650
52,766667	1	0,587750
52,783333	1	0,578400
52,800000	1	0,585450
52,816667	1	0,579600
52,833333	1	0,583650
52,850000	1	0,578100
52,866667	1	0,584500
52,883333	1	0,581400
52,900000	1	0,589100
52,916667	1	0,591750
52,933333	1	0,590500
52,950000	1	0,591850
52,966667	1	0,587700
52,983333	1	0,595650
53,000000	1	0,590450
53,016667	1	0,591250
53,033333	1	0,597050
53,050000	1	0,597900
53,066667	1	0,586650
53,083333	1	0,595100
53,100000	1	0,577400
53,116667	1	0,601850
53,133333	1	0,587200
53,150000	1	0,598800
53,166667	1	0,582400
53,183333	1	0,590400
53,200000	1	0,599050
53,216667	1	0,604600
53,233333	1	0,604000
53,250000	1	0,598250
53,266667	1	0,590600
53,283333	1	0,607850
53,300000	1	0,607750
53,316667	1	0,604650
53,333333	1	0,600900
53,350000	1	0,605850
53,366667	1	0,620650
53,383333	1	0,611650
53,400000	1	0,615350
53,416667	1	0,606300
53,433333	1	0,608050
53,450000	1	0,614850
53,466667	1	0,616900
53,483333	1	0,612450
53,500000	1	0,602150
53,516667	1	0,616850
53,533333	1	0,610050
53,550000	1	0,601900
53,566667	1	0,610700
53,583333	1	0,618800
53,600000	1	0,625250
53,616667	1	0,623000
53,633333	1	0,615000
53,650000	1	0,627850
53,666667	1	0,636800
53,683333	1	0,628750
53,700000	1	0,624300
53,716667	1	0,619400
53,733333	1	0,622200
53,750000	1	0,627850
53,766667	1	0,621900
53,783333	1	0,625350
53,800000	1	0,625100
53,816667	1	0,632200
53,833333	1	0,632450
53,850000	1	0,617200
53,866667	1	0,623800
53,883333	1	0,635400
53,900000	1	0,635300
53,916667	1	0,634750
53,933333	1	0,627450
53,950000	1	0,625300
53,966667	1	0,630600
53,983333	1	0,630750
54,000000	1	0,628150
